# Columns correspond to X for different omega values.
-2.820262506358603427e-01 -3.159032693872985131e-01
-2.824303890844144793e-01 -3.162469174120549065e-01
-2.836410367008889155e-01 -3.172908481065312980e-01
-2.856528695677799656e-01 -3.190307421735484317e-01
-2.884570910224727447e-01 -3.214594208057955926e-01
-2.920415426236436796e-01 -3.245669043705848300e-01
-2.963908520975664374e-01 -3.283404918735938760e-01
-3.014866115747347197e-01 -3.327648586142341047e-01
-3.073075784397827914e-01 -3.378221689873422418e-01
-3.138298906665910049e-01 -3.434922011041597889e-01
-3.210272885753759353e-01 -3.497524798044008842e-01
-3.288713354640936948e-01 -3.565784147015858552e-01
-3.373316304366908991e-01 -3.639434401256954610e-01
-3.463760078653420060e-01 -3.718191541728946281e-01
-3.559707191729805098e-01 -3.801754545097665305e-01
-3.660805939083195959e-01 -3.889806690765919006e-01
-3.766691783296814422e-01 -3.982016803600361143e-01
-3.876988508602874361e-01 -4.078040424334151148e-01
-3.991309147923525202e-01 -4.177520904707207605e-01
-4.109256694859006465e-01 -4.280090429124003282e-01
-4.230424620314966466e-01 -4.385370968851897699e-01
-4.354397219355265469e-01 -4.492975178482107035e-01
-4.480749818600200940e-01 -4.602507247496543386e-01
-4.609048878265172289e-01 -4.713563722318216964e-01
-4.738852025947316027e-01 -4.825734316176845673e-01
-4.869708061685164013e-01 -4.938602725507963975e-01
-5.001156975760453482e-01 -5.051747472436612929e-01
-5.132730022247953272e-01 -5.164742793184072811e-01
-5.263949892452545187e-01 -5.277159591979796449e-01
-5.394331033042030210e-01 -5.388566479253790176e-01
-5.523380153764266831e-01 -5.498530911513616060e-01
-5.650596968944353593e-01 -5.606620448357579889e-01
-5.775475215255573280e-01 -5.712404139523750146e-01
-5.897503985272043447e-01 -5.815454051711935746e-01
-6.016169411747698259e-01 -5.915346941143219128e-01
-6.130956731137030546e-01 -6.011666073459209780e-01
-6.241352746328557854e-01 -6.104003187657519591e-01
-6.346848697731324318e-01 -6.191960595390229027e-01
-6.446943538689522413e-01 -6.275153401235803452e-01
-6.541147595820566707e-01 -6.353211823649930201e-01
-6.628986577608927400e-01 -6.425783590406146661e-01
-6.710005876014639714e-01 -6.492536376687865207e-01
-6.783775086799804788e-01 -6.553160248854154046e-01
-6.849892655807291453e-01 -6.607370072552161133e-01
-6.907990541804546192e-01 -6.654907840569337374e-01
-6.957738773102921659e-01 -6.695544873867922409e-01
-6.998849766339304557e-01 -6.729083848840289317e-01
-7.031082272769729746e-01 -6.755360605120827033e-01
-7.054244821073710758e-01 -6.774245691360626376e-01
-7.068198536453526026e-01 -6.785645611191364335e-01
-7.072859233628322473e-01 -6.789503738047066861e-01
-7.068198705454793451e-01 -6.785800875347391958e-01
-7.054245158054235354e-01 -6.774555447451939827e-01
-7.031082775701212872e-01 -6.755823316377185250e-01
-6.998850432218044482e-01 -6.729697229083557719e-01
-6.957739597994629932e-01 -6.696305909731699035e-01
-6.907991520901481941e-01 -6.655812820230817550e-01
-6.849893783495671906e-01 -6.608414620262529349e-01
-6.783776356735169433e-01 -6.554339364437175020e-01
-6.710007281202756690e-01 -6.493844479094665889e-01
-6.628988110489807406e-01 -6.427214564369029270e-01
-6.541149248353242962e-01 -6.354759068468912586e-01
-6.446945302435517222e-01 -6.276809880756143434e-01
-6.346850563934890443e-01 -6.193718888283361590e-01
-6.241354705992266938e-01 -6.105855537196998029e-01
-6.130958775091466251e-01 -6.013604436081501081e-01
-6.016171530714438109e-01 -5.917363033194782407e-01
-5.897506169919443098e-01 -5.817539393903525813e-01
-5.775477456247131158e-01 -5.714550098734729744e-01
-5.650599256979718099e-01 -5.608818276553082516e-01
-5.523382479613171414e-01 -5.500771781651796477e-01
-5.394333387571562666e-01 -5.390841518166451518e-01
-5.263952266648357359e-01 -5.279459910305100978e-01
-5.132732407230089500e-01 -5.167059512513922925e-01
-5.001159362794544982e-01 -5.054071749912646405e-01
-4.869710442189788546e-01 -4.940925776158915927e-01
-4.738854391498337759e-01 -4.828047433336383198e-01
-4.609051220597834564e-01 -4.715858296496515112e-01
-4.480752129609811285e-01 -4.604774784101345886e-01
-4.354399491097283859e-01 -4.495207314796016984e-01
-4.230426845005244019e-01 -4.387559490672401918e-01
-4.109258864874881234e-01 -4.282227287461381482e-01
-3.991311255806531677e-01 -4.179598232912814515e-01
-3.876990547063680626e-01 -4.080050555997425388e-01
-3.766693745222957634e-01 -3.983952291507023014e-01
-3.660807817550155718e-01 -3.891660327151762466e-01
-3.559708980015817703e-01 -3.803519383362402029e-01
-3.463761770258344530e-01 -3.719860919692931089e-01
-3.373317893035267523e-01 -3.641001965951357611e-01
-3.288714834389129815e-01 -3.567243880895796804e-01
-3.210274250901230531e-01 -3.498871046407172059e-01
-3.138300151869840571e-01 -3.436149510325823830e-01
-3.073076904690673072e-01 -3.379325596400549192e-01
-3.014867106576346045e-01 -3.328624504778425752e-01
-2.963909378243186343e-01 -3.284248930856151216e-01
-2.920416146339852581e-01 -3.246377733792723541e-01
-2.884571490094403057e-01 -3.215164688230538470e-01
-2.856529132811726490e-01 -3.190737353509169316e-01
-2.836410659502489606e-01 -3.173196093681032171e-01
-2.824304037413928881e-01 -3.162613278857934196e-01
